# Pulseq sequence file
# Created by PyPulseq

[VERSION]
major 1
minor 4
revision 0

[DEFINITIONS]
AdcRasterTime 1e-07 
BlockDurationRaster 1e-05 
GradientRasterTime 1e-05 
RadiofrequencyRasterTime 1e-06 
TotalDuration 59.8633 
fov 0.048 0.25 0.25 
name se_rad 

# Format of blocks:
# NUM DUR RF  GX  GY  GZ  ADC  EXT
[BLOCKS]
   1 317   1   1   0   0  0  0
   2 2751   0   0   0   3  0  0
   3 144   2   4   0   0  0  0
   4 19293   0   5   0   7  0  0
   5 317   1   1   0   0  0  0
   6 2751   0   0   0   9  0  0
   7 144   2   4   0   0  0  0
   8 19293   0   5   0  11  0  0
   9 317   1   1   0   0  0  0
  10 2751   0   0   0  13  0  0
  11 144   2   4   0   0  0  0
  12 19293   0   5   0  15  0  0
  13 317   1   1   0   0  0  0
  14 2751   0   0   0  17  0  0
  15 144   2   4   0   0  0  0
  16 19293   0   5   0  19  0  0
  17 317   1   1   0   0  0  0
  18 2751   0   0   0  21  0  0
  19 144   2   4   0   0  0  0
  20 19293   0   5   0  23  0  0
  21 317   1   1   0   0  0  0
  22 2751   0   0   0  25  0  0
  23 144   2   4   0   0  0  0
  24 19293   0   5   0  27  0  0
  25 317   1   1   0   0  0  0
  26 2751   0   0   0  29  0  0
  27 144   2   4   0   0  0  0
  28 19293   0   5   0  31  0  0
  29 317   1   1   0   0  0  0
  30 2751   0   0   0  33  0  0
  31 144   2   4   0   0  0  0
  32 19293   0   5   0  35  0  0
  33 317   1   1   0   0  0  0
  34 2751   0   0   0  37  0  0
  35 144   2   4   0   0  0  0
  36 19293   0   5   0  39  0  0
  37 317   1   1   0   0  0  0
  38 2751   0   0   0  41  0  0
  39 144   2   4   0   0  0  0
  40 19293   0   5   0  43  0  0
  41 317   1   1   0   0  0  0
  42 2751   0   0   0  44  0  0
  43 144   2   4   0   0  0  0
  44 19293   0   5   0  45  1  0
  45 317   1   1   0   0  0  0
  46 2751   0   0   0  41  0  0
  47 144   2   4   0   0  0  0
  48 19293   0   5   0  43  1  0
  49 317   1   1   0   0  0  0
  50 2751   0   0   0  37  0  0
  51 144   2   4   0   0  0  0
  52 19293   0   5   0  39  1  0
  53 317   1   1   0   0  0  0
  54 2751   0   0   0  33  0  0
  55 144   2   4   0   0  0  0
  56 19293   0   5   0  35  1  0
  57 317   1   1   0   0  0  0
  58 2751   0   0   0  29  0  0
  59 144   2   4   0   0  0  0
  60 19293   0   5   0  31  1  0
  61 317   1   1   0   0  0  0
  62 2751   0   0   0  25  0  0
  63 144   2   4   0   0  0  0
  64 19293   0   5   0  27  1  0
  65 317   1   1   0   0  0  0
  66 2751   0   0   0  21  0  0
  67 144   2   4   0   0  0  0
  68 19293   0   5   0  23  1  0
  69 317   1   1   0   0  0  0
  70 2751   0   0   0  17  0  0
  71 144   2   4   0   0  0  0
  72 19293   0   5   0  19  1  0
  73 317   1   1   0   0  0  0
  74 2751   0   0   0  13  0  0
  75 144   2   4   0   0  0  0
  76 19293   0   5   0  15  1  0
  77 317   1   1   0   0  0  0
  78 2751   0   0   0   9  0  0
  79 144   2   4   0   0  0  0
  80 19293   0   5   0  11  1  0
  81 317   1   1   0   0  0  0
  82 2751   0   0   0   3  0  0
  83 144   2   4   0   0  0  0
  84 19293   0   5   0   7  1  0
  85 317   1   1   0   0  0  0
  86 2751   0   0   0  67  0  0
  87 144   2   4   0   0  0  0
  88 19293   0   5   0  69  1  0
  89 317   1   1   0   0  0  0
  90 2751   0   0   0  71  0  0
  91 144   2   4   0   0  0  0
  92 19293   0   5   0  73  1  0
  93 317   1   1   0   0  0  0
  94 2751   0   0   0  75  0  0
  95 144   2   4   0   0  0  0
  96 19293   0   5   0  77  1  0
  97 317   1   1   0   0  0  0
  98 2751   0   0   0  79  0  0
  99 144   2   4   0   0  0  0
 100 19293   0   5   0  81  1  0
 101 317   1   1   0   0  0  0
 102 2751   0   0   0  83  0  0
 103 144   2   4   0   0  0  0
 104 19293   0   5   0  85  1  0
 105 317   1   1   0   0  0  0
 106 2751   0   0   0  87  0  0
 107 144   2   4   0   0  0  0
 108 19293   0   5   0  89  1  0
 109 317   1   1   0   0  0  0
 110 2751   0   0   0  91  0  0
 111 144   2   4   0   0  0  0
 112 19293   0   5   0  93  1  0
 113 317   1   1   0   0  0  0
 114 2751   0   0   0  95  0  0
 115 144   2   4   0   0  0  0
 116 19293   0   5   0  97  1  0
 117 317   1   1   0   0  0  0
 118 2751   0   0   0  99  0  0
 119 144   2   4   0   0  0  0
 120 19293   0   5   0 101  1  0
 121 317   1   1   0   0  0  0
 122 2751   0   0   0 103  0  0
 123 144   2   4   0   0  0  0
 124 19293   0   5   0 105  1  0
 125 317   1   1   0   0  0  0
 126 2751   0   0   0 107  0  0
 127 144   2   4   0   0  0  0
 128 19293   0   5   0 109  1  0
 129 317   1   1   0   0  0  0
 130 2751   0   0   0 111  0  0
 131 144   2   4   0   0  0  0
 132 19293   0   5   0 113  1  0
 133 317   1   1   0   0  0  0
 134 2751   0   0   0 115  0  0
 135 144   2   4   0   0  0  0
 136 19293   0   5   0 117  1  0
 137 317   1   1   0   0  0  0
 138 2751   0   0   0 119  0  0
 139 144   2   4   0   0  0  0
 140 19293   0   5   0 121  1  0
 141 317   1   1   0   0  0  0
 142 2751   0   0   0 123  0  0
 143 144   2   4   0   0  0  0
 144 19293   0   5   0 125  1  0
 145 317   1   1   0   0  0  0
 146 2751   0   0   0 127  0  0
 147 144   2   4   0   0  0  0
 148 19293   0   5   0 129  1  0
 149 317   1   1   0   0  0  0
 150 2751   0   0   0 131  0  0
 151 144   2   4   0   0  0  0
 152 19293   0   5   0 133  1  0
 153 317   1   1   0   0  0  0
 154 2751   0   0   0 135  0  0
 155 144   2   4   0   0  0  0
 156 19293   0   5   0 137  1  0
 157 317   1   1   0   0  0  0
 158 2751   0   0   0 139  0  0
 159 144   2   4   0   0  0  0
 160 19293   0   5   0 141  1  0
 161 317   1   1   0   0  0  0
 162 2751   0   0   0 143  0  0
 163 144   2   4   0   0  0  0
 164 19293   0   5   0 145  1  0
 165 317   1   1   0   0  0  0
 166 2751   0   0   0 147  0  0
 167 144   2   4   0   0  0  0
 168 19293   0   5   0 149  1  0
 169 317   1   1   0   0  0  0
 170 2751   0   0   0 151  0  0
 171 144   2   4   0   0  0  0
 172 19293   0   5   0 153  1  0
 173 317   1   1   0   0  0  0
 174 2751   0   0   0 155  0  0
 175 144   2   4   0   0  0  0
 176 19293   0   5   0 157  1  0
 177 317   1   1   0   0  0  0
 178 2751   0   0   0 159  0  0
 179 144   2   4   0   0  0  0
 180 19293   0   5   0 161  1  0
 181 317   1   1   0   0  0  0
 182 2751   0   0   0 163  0  0
 183 144   2   4   0   0  0  0
 184 19293   0   5   0 165  1  0
 185 317   1   1   0   0  0  0
 186 2751   0   0   0 167  0  0
 187 144   2   4   0   0  0  0
 188 19293   0   5   0 169  1  0
 189 317   1   1   0   0  0  0
 190 2751   0   0   0 171  0  0
 191 144   2   4   0   0  0  0
 192 19293   0   5   0 173  1  0
 193 317   1   1   0   0  0  0
 194 2751   0   0   0 175  0  0
 195 144   2   4   0   0  0  0
 196 19293   0   5   0 177  1  0
 197 317   1   1   0   0  0  0
 198 2751   0   0   0 179  0  0
 199 144   2   4   0   0  0  0
 200 19293   0   5   0 181  1  0
 201 317   1   1   0   0  0  0
 202 2751   0   0   0 183  0  0
 203 144   2   4   0   0  0  0
 204 19293   0   5   0 185  1  0
 205 317   1   1   0   0  0  0
 206 2751   0   0   0 187  0  0
 207 144   2   4   0   0  0  0
 208 19293   0   5   0 189  1  0
 209 317   1   1   0   0  0  0
 210 2751   0   0   0 191  0  0
 211 144   2   4   0   0  0  0
 212 19293   0   5   0 193  1  0
 213 317   1   1   0   0  0  0
 214 2751   0   0   0 195  0  0
 215 144   2   4   0   0  0  0
 216 19293   0   5   0 197  1  0
 217 317   1   1   0   0  0  0
 218 2751   0   0   0 199  0  0
 219 144   2   4   0   0  0  0
 220 19293   0   5   0 201  1  0
 221 317   1   1   0   0  0  0
 222 2751   0   0   0 203  0  0
 223 144   2   4   0   0  0  0
 224 19293   0   5   0 205  1  0
 225 317   1   1   0   0  0  0
 226 2751   0   0   0 207  0  0
 227 144   2   4   0   0  0  0
 228 19293   0   5   0 209  1  0
 229 317   1   1   0   0  0  0
 230 2751   0   0   0 211  0  0
 231 144   2   4   0   0  0  0
 232 19293   0   5   0 213  1  0
 233 317   1   1   0   0  0  0
 234 2751   0   0   0 215  0  0
 235 144   2   4   0   0  0  0
 236 19293   0   5   0 217  1  0
 237 317   1   1   0   0  0  0
 238 2751   0   0   0 219  0  0
 239 144   2   4   0   0  0  0
 240 19293   0   5   0 221  1  0
 241 317   1   1   0   0  0  0
 242 2751   0   0   0 223  0  0
 243 144   2   4   0   0  0  0
 244 19293   0   5   0 225  1  0
 245 317   1   1   0   0  0  0
 246 2751   0   0   0 227  0  0
 247 144   2   4   0   0  0  0
 248 19293   0   5   0 229  1  0
 249 317   1   1   0   0  0  0
 250 2751   0   0   0 231  0  0
 251 144   2   4   0   0  0  0
 252 19293   0   5   0 233  1  0
 253 317   1   1   0   0  0  0
 254 2751   0   0   0 235  0  0
 255 144   2   4   0   0  0  0
 256 19293   0   5   0 237  1  0
 257 317   1   1   0   0  0  0
 258 2751   0   0   0   2  0  0
 259 144   2   4   0   0  0  0
 260 19293   0   5   0   6  1  0
 261 317   1   1   0   0  0  0
 262 2751   0   0   0   8  0  0
 263 144   2   4   0   0  0  0
 264 19293   0   5   0  10  1  0
 265 317   1   1   0   0  0  0
 266 2751   0   0   0  12  0  0
 267 144   2   4   0   0  0  0
 268 19293   0   5   0  14  1  0
 269 317   1   1   0   0  0  0
 270 2751   0   0   0  16  0  0
 271 144   2   4   0   0  0  0
 272 19293   0   5   0  18  1  0
 273 317   1   1   0   0  0  0
 274 2751   0   0   0  20  0  0
 275 144   2   4   0   0  0  0
 276 19293   0   5   0  22  1  0
 277 317   1   1   0   0  0  0
 278 2751   0   0   0  24  0  0
 279 144   2   4   0   0  0  0
 280 19293   0   5   0  26  1  0
 281 317   1   1   0   0  0  0
 282 2751   0   0   0  28  0  0
 283 144   2   4   0   0  0  0
 284 19293   0   5   0  30  1  0
 285 317   1   1   0   0  0  0
 286 2751   0   0   0  32  0  0
 287 144   2   4   0   0  0  0
 288 19293   0   5   0  34  1  0
 289 317   1   1   0   0  0  0
 290 2751   0   0   0  36  0  0
 291 144   2   4   0   0  0  0
 292 19293   0   5   0  38  1  0
 293 317   1   1   0   0  0  0
 294 2751   0   0   0  40  0  0
 295 144   2   4   0   0  0  0
 296 19293   0   5   0  42  1  0
 297 317   1   1   0   0  0  0
 298 2751   0   0   0 258  0  0
 299 144   2   4   0   0  0  0
 300 19293   0   5   0 259  1  0
 301 317   1   1   0   0  0  0
 302 2751   0   0   0  46  0  0
 303 144   2   4   0   0  0  0
 304 19293   0   5   0  47  1  0
[RF]
1      336.453 1 2 0 100 0 0
2          500 3 4 5 420 0 0

# Format of trapezoid gradients:
# id amplitude rise flat fall delay
# ..      Hz/m   us   us   us    us
[TRAP]
 1       444444  70 3000  70  30
 2      4647.55  10 27490  10   0
 3      18554.1  10 27490  10   0
 4  1.51323e+06 210    0 210   0
 5  1.69492e+06 240  350 240   0
 6      97192.1  60 2560  60 28140
 7       388013  60 2560  60 28140
 8      4190.81  10 27490  10   0
 9      18662.5  10 27490  10   0
10      87640.5  60 2560  60 28140
11       390281  60 2560  60 28140
12      3731.55  10 27490  10   0
13      18759.7  10 27490  10   0
14      78036.1  60 2560  60 28140
15       392314  60 2560  60 28140
16      3270.03  10 27490  10   0
17      18845.7  10 27490  10   0
18      68384.8  60 2560  60 28140
19       394111  60 2560  60 28140
20      2806.55  10 27490  10   0
21      18920.2  10 27490  10   0
22      58692.2  60 2560  60 28140
23       395671  60 2560  60 28140
24      2341.38  10 27490  10   0
25      18983.4  10 27490  10   0
26      48964.3  60 2560  60 28140
27       396992  60 2560  60 28140
28       1874.8  10 27490  10   0
29      19035.2  10 27490  10   0
30      39206.9  60 2560  60 28140
31       398074  60 2560  60 28140
32      1407.09  10 27490  10   0
33      19075.4  10 27490  10   0
34      29425.8  60 2560  60 28140
35       398916  60 2560  60 28140
36      938.531  10 27490  10   0
37      19104.2  10 27490  10   0
38      19627.1  60 2560  60 28140
39       399518  60 2560  60 28140
40      469.407  10 27490  10   0
41      19121.5  10 27490  10   0
42      9816.49  60 2560  60 28140
43       399880  60 2560  60 28140
44      19127.3  10 27490  10   0
45       400000  60 2560  60 28140
46     -469.407  10 27490  10   0
47     -9816.49  60 2560  60 28140
48     -938.531  10 27490  10   0
49     -19627.1  60 2560  60 28140
50     -1407.09  10 27490  10   0
51     -29425.8  60 2560  60 28140
52      -1874.8  10 27490  10   0
53     -39206.9  60 2560  60 28140
54     -2341.38  10 27490  10   0
55     -48964.3  60 2560  60 28140
56     -2806.55  10 27490  10   0
57     -58692.2  60 2560  60 28140
58     -3270.03  10 27490  10   0
59     -68384.8  60 2560  60 28140
60     -3731.55  10 27490  10   0
61     -78036.1  60 2560  60 28140
62     -4190.81  10 27490  10   0
63     -87640.5  60 2560  60 28140
64     -4647.55  10 27490  10   0
65     -97192.1  60 2560  60 28140
66     -5101.49  10 27490  10   0
67      18434.4  10 27490  10   0
68      -106685  60 2560  60 28140
69       385510  60 2560  60 28140
70     -5552.35  10 27490  10   0
71      18303.7  10 27490  10   0
72      -116114  60 2560  60 28140
73       382776  60 2560  60 28140
74     -5999.88  10 27490  10   0
75      18161.9  10 27490  10   0
76      -125473  60 2560  60 28140
77       379811  60 2560  60 28140
78     -6443.78  10 27490  10   0
79      18009.2  10 27490  10   0
80      -134756  60 2560  60 28140
81       376618  60 2560  60 28140
82     -6883.81  10 27490  10   0
83      17845.6  10 27490  10   0
84      -143958  60 2560  60 28140
85       373197  60 2560  60 28140
86     -7319.69  10 27490  10   0
87      17671.3  10 27490  10   0
88      -153073  60 2560  60 28140
89       369552  60 2560  60 28140
90     -7751.16  10 27490  10   0
91      17486.3  10 27490  10   0
92      -162097  60 2560  60 28140
93       365684  60 2560  60 28140
94     -8177.96  10 27490  10   0
95      17290.8  10 27490  10   0
96      -171022  60 2560  60 28140
97       361596  60 2560  60 28140
98     -8599.84  10 27490  10   0
99      17084.9  10 27490  10   0
100      -179845  60 2560  60 28140
101       357290  60 2560  60 28140
102     -9016.53  10 27490  10   0
103      16868.7  10 27490  10   0
104      -188559  60 2560  60 28140
105       352769  60 2560  60 28140
106      -9427.8  10 27490  10   0
107      16642.4  10 27490  10   0
108      -197159  60 2560  60 28140
109       348035  60 2560  60 28140
110     -9833.38  10 27490  10   0
111        16406  10 27490  10   0
112      -205641  60 2560  60 28140
113       343091  60 2560  60 28140
114       -10233  10 27490  10   0
115      16159.7  10 27490  10   0
116      -213999  60 2560  60 28140
117       337941  60 2560  60 28140
118     -10626.5  10 27490  10   0
119      15903.7  10 27490  10   0
120      -222228  60 2560  60 28140
121       332588  60 2560  60 28140
122     -11013.6  10 27490  10   0
123      15638.2  10 27490  10   0
124      -230323  60 2560  60 28140
125       327034  60 2560  60 28140
126     -11394.1  10 27490  10   0
127      15363.2  10 27490  10   0
128      -238280  60 2560  60 28140
129       321283  60 2560  60 28140
130     -11767.7  10 27490  10   0
131      15078.9  10 27490  10   0
132      -246093  60 2560  60 28140
133       315339  60 2560  60 28140
134     -12134.2  10 27490  10   0
135      14785.6  10 27490  10   0
136      -253757  60 2560  60 28140
137       309204  60 2560  60 28140
138     -12493.4  10 27490  10   0
139      14483.3  10 27490  10   0
140      -261269  60 2560  60 28140
141       302884  60 2560  60 28140
142     -12845.1  10 27490  10   0
143      14172.4  10 27490  10   0
144      -268624  60 2560  60 28140
145       296380  60 2560  60 28140
146       -13189  10 27490  10   0
147      13852.9  10 27490  10   0
148      -275816  60 2560  60 28140
149       289699  60 2560  60 28140
150       -13525  10 27490  10   0
151        13525  10 27490  10   0
152      -282843  60 2560  60 28140
153       282843  60 2560  60 28140
154     -13852.9  10 27490  10   0
155        13189  10 27490  10   0
156      -289699  60 2560  60 28140
157       275816  60 2560  60 28140
158     -14172.4  10 27490  10   0
159      12845.1  10 27490  10   0
160      -296380  60 2560  60 28140
161       268624  60 2560  60 28140
162     -14483.3  10 27490  10   0
163      12493.4  10 27490  10   0
164      -302884  60 2560  60 28140
165       261269  60 2560  60 28140
166     -14785.6  10 27490  10   0
167      12134.2  10 27490  10   0
168      -309204  60 2560  60 28140
169       253757  60 2560  60 28140
170     -15078.9  10 27490  10   0
171      11767.7  10 27490  10   0
172      -315339  60 2560  60 28140
173       246093  60 2560  60 28140
174     -15363.2  10 27490  10   0
175      11394.1  10 27490  10   0
176      -321283  60 2560  60 28140
177       238280  60 2560  60 28140
178     -15638.2  10 27490  10   0
179      11013.6  10 27490  10   0
180      -327034  60 2560  60 28140
181       230323  60 2560  60 28140
182     -15903.7  10 27490  10   0
183      10626.5  10 27490  10   0
184      -332588  60 2560  60 28140
185       222228  60 2560  60 28140
186     -16159.7  10 27490  10   0
187        10233  10 27490  10   0
188      -337941  60 2560  60 28140
189       213999  60 2560  60 28140
190       -16406  10 27490  10   0
191      9833.38  10 27490  10   0
192      -343091  60 2560  60 28140
193       205641  60 2560  60 28140
194     -16642.4  10 27490  10   0
195       9427.8  10 27490  10   0
196      -348035  60 2560  60 28140
197       197159  60 2560  60 28140
198     -16868.7  10 27490  10   0
199      9016.53  10 27490  10   0
200      -352769  60 2560  60 28140
201       188559  60 2560  60 28140
202     -17084.9  10 27490  10   0
203      8599.84  10 27490  10   0
204      -357290  60 2560  60 28140
205       179845  60 2560  60 28140
206     -17290.8  10 27490  10   0
207      8177.96  10 27490  10   0
208      -361596  60 2560  60 28140
209       171022  60 2560  60 28140
210     -17486.3  10 27490  10   0
211      7751.16  10 27490  10   0
212      -365684  60 2560  60 28140
213       162097  60 2560  60 28140
214     -17671.3  10 27490  10   0
215      7319.69  10 27490  10   0
216      -369552  60 2560  60 28140
217       153073  60 2560  60 28140
218     -17845.6  10 27490  10   0
219      6883.81  10 27490  10   0
220      -373197  60 2560  60 28140
221       143958  60 2560  60 28140
222     -18009.2  10 27490  10   0
223      6443.78  10 27490  10   0
224      -376618  60 2560  60 28140
225       134756  60 2560  60 28140
226     -18161.9  10 27490  10   0
227      5999.88  10 27490  10   0
228      -379811  60 2560  60 28140
229       125473  60 2560  60 28140
230     -18303.7  10 27490  10   0
231      5552.35  10 27490  10   0
232      -382776  60 2560  60 28140
233       116114  60 2560  60 28140
234     -18434.4  10 27490  10   0
235      5101.49  10 27490  10   0
236      -385510  60 2560  60 28140
237       106685  60 2560  60 28140
238     -18554.1  10 27490  10   0
239      -388013  60 2560  60 28140
240     -18662.5  10 27490  10   0
241      -390281  60 2560  60 28140
242     -18759.7  10 27490  10   0
243      -392314  60 2560  60 28140
244     -18845.7  10 27490  10   0
245      -394111  60 2560  60 28140
246     -18920.2  10 27490  10   0
247      -395671  60 2560  60 28140
248     -18983.4  10 27490  10   0
249      -396992  60 2560  60 28140
250     -19035.2  10 27490  10   0
251      -398074  60 2560  60 28140
252     -19075.4  10 27490  10   0
253      -398916  60 2560  60 28140
254     -19104.2  10 27490  10   0
255      -399518  60 2560  60 28140
256     -19121.5  10 27490  10   0
257      -399880  60 2560  60 28140
258     -19127.3  10 27490  10   0
259      -400000  60 2560  60 28140

# Format of ADC events:
# id num dwell delay freq phase
# ..  ..    ns    us   Hz   rad
[ADC]
1 256 10000 28200 0 0

# Sequence Shapes
[SHAPES]

shape_id 1
num_samples 3000
6.66889841e-05
0.000200201049
0.000333893185
0.000467766924
0.000601823804
0.000736065364
0.000870493149
0.0010051087
0.00113991358
0.00127490932
0.0014100975
0.00154547965
0.00168105735
0.00181683215
0.00195280562
0.00208897932
0.00222535482
0.00236193369
0.00249871748
0.00263570778
0.00277290615
0.00291031417
0.0030479334
0.00318576541
0.00332381178
0.00346207407
0.00360055387
0.00373925272
0.00387817221
0.00401731391
0.00415667937
0.00429627016
0.00443608785
0.004576134
0.00471641017
0.00485691791
0.00499765879
0.00513863435
0.00527984614
0.00542129571
0.0055629846
0.00570491435
0.00584708651
0.0059895026
0.00613216415
0.00627507268
0.00641822973
0.00656163679
0.00670529539
0.00684920702
0.0069933732
0.00713779541
0.00728247515
0.0074274139
0.00757261313
0.00771807433
0.00786379895
0.00800978845
0.00815604429
0.00830256791
0.00844936075
0.00859642424
0.00874375981
0.00889136886
0.0090392528
0.00918741304
0.00933585097
0.00948456795
0.00963356538
0.00978284461
0.009932407
0.0100822539
0.0102323866
0.0103828065
0.0105335149
0.010684513
0.0108358023
0.0109873839
0.0111392591
0.0112914292
0.0114438955
0.0115966591
0.0117497214
0.0119030835
0.0120567467
0.012210712
0.0123649808
0.0125195541
0.0126744331
0.012829619
0.0129851129
0.0131409159
0.0132970291
0.0134534535
0.0136101903
0.0137672405
0.0139246052
0.0140822853
0.0142402819
0.014398596
0.0145572285
0.0147161804
0.0148754528
0.0150350464
0.0151949622
0.0153552012
0.0155157641
0.015676652
0.0158378655
0.0159994056
0.016161273
0.0163234686
0.0164859931
0.0166488473
0.016812032
0.0169755478
0.0171393954
0.0173035756
0.0174680891
0.0176329363
0.0177981181
0.0179636349
0.0181294875
0.0182956762
0.0184622018
0.0186290647
0.0187962653
0.0189638043
0.0191316821
0.0192998991
0.0194684556
0.0196373523
0.0198065893
0.019976167
0.0201460859
0.0203163461
0.020486948
0.0206578919
0.0208291779
0.0210008063
0.0211727773
0.021345091
0.0215177477
0.0216907474
0.0218640901
0.0220377761
0.0222118053
0.0223861777
0.0225608934
0.0227359523
0.0229113543
0.0230870995
0.0232631876
0.0234396185
0.0236163922
0.0237935083
0.0239709667
0.0241487672
0.0243269094
0.0245053931
0.024684218
0.0248633837
0.0250428899
0.025222736
0.0254029218
0.0255834467
0.0257643103
0.025945512
0.0261270513
0.0263089276
0.0264911403
0.0266736888
0.0268565723
0.0270397903
0.027223342
0.0274072266
0.0275914434
0.0277759915
0.02796087
0.0281460782
0.0283316151
0.0285174798
0.0287036712
0.0288901885
0.0290770305
0.0292641962
0.0294516845
0.0296394943
0.0298276244
0.0300160736
0.0302048406
0.0303939244
0.0305833234
0.0307730365
0.0309630622
0.0311533991
0.0313440459
0.0315350011
0.0317262632
0.0319178306
0.0321097018
0.0323018752
0.0324943492
0.032687122
0.0328801921
0.0330735576
0.0332672169
0.033461168
0.0336554092
0.0338499385
0.0340447541
0.0342398541
0.0344352363
0.0346308989
0.0348268397
0.0350230567
0.0352195477
0.0354163106
0.0356133431
0.0358106431
0.0360082083
0.0362060362
0.0364041247
0.0366024713
0.0368010735
0.036999929
0.0371990351
0.0373983895
0.0375979894
0.0377978323
0.0379979155
0.0381982364
0.0383987922
0.0385995801
0.0388005974
0.0390018411
0.0392033085
0.0394049965
0.0396069022
0.0398090227
0.0400113548
0.0402138955
0.0404166416
0.0406195901
0.0408227377
0.0410260811
0.0412296171
0.0414333424
0.0416372536
0.0418413473
0.0420456201
0.0422500684
0.0424546888
0.0426594777
0.0428644315
0.0430695465
0.0432748191
0.0434802455
0.043685822
0.0438915448
0.0440974099
0.0443034136
0.0445095519
0.0447158208
0.0449222163
0.0451287343
0.0453353708
0.0455421216
0.0457489825
0.0459559494
0.0461630178
0.0463701836
0.0465774424
0.0467847897
0.0469922212
0.0471997324
0.0474073188
0.0476149757
0.0478226986
0.0480304829
0.0482383239
0.0484462168
0.0486541569
0.0488621393
0.0490701592
0.0492782117
0.0494862918
0.0496943946
0.049902515
0.050110648
0.0503187884
0.0505269311
0.050735071
0.0509432026
0.0511513208
0.0513594203
0.0515674956
0.0517755413
0.0519835521
0.0521915223
0.0523994464
0.052607319
0.0528151342
0.0530228865
0.0532305701
0.0534381793
0.0536457083
0.0538531512
0.0540605021
0.0542677551
0.0544749043
0.0546819435
0.0548888668
0.0550956681
0.0553023411
0.0555088798
0.0557152778
0.0559215289
0.0561276268
0.0563335651
0.0565393374
0.0567449372
0.0569503581
0.0571555935
0.0573606369
0.0575654815
0.0577701209
0.0579745482
0.0581787567
0.0583827396
0.05858649
0.0587900012
0.0589932661
0.0591962778
0.0593990294
0.0596015137
0.0598037236
0.0600056521
0.0602072919
0.0604086359
0.0606096767
0.0608104071
0.0610108197
0.0612109071
0.061410662
0.0616100768
0.0618091439
0.062007856
0.0622062053
0.0624041842
0.0626017851
0.0627990001
0.0629958217
0.0631922418
0.0633882528
0.0635838467
0.0637790155
0.0639737514
0.0641680463
0.0643618921
0.0645552807
0.064748204
0.0649406539
0.0651326221
0.0653241004
0.0655150804
0.0657055539
0.0658955124
0.0660849475
0.0662738508
0.0664622138
0.0666500279
0.0668372845
0.0670239751
0.067210091
0.0673956235
0.0675805638
0.0677649031
0.0679486328
0.0681317438
0.0683142274
0.0684960745
0.0686772762
0.0688578236
0.0690377075
0.0692169189
0.0693954487
0.0695732876
0.0697504266
0.0699268563
0.0701025675
0.0702775509
0.0704517971
0.0706252968
0.0707980405
0.0709700188
0.0711412222
0.0713116411
0.071481266
0.0716500872
0.0718180952
0.0719852803
0.0721516328
0.0723171428
0.0724818007
0.0726455966
0.0728085207
0.072970563
0.0731317137
0.0732919628
0.0734513003
0.0736097162
0.0737672004
0.0739237429
0.0740793335
0.0742339621
0.0743876184
0.0745402923
0.0746919734
0.0748426516
0.0749923165
0.0751409577
0.0752885648
0.0754351274
0.0755806352
0.0757250775
0.0758684439
0.0760107239
0.0761519068
0.0762919821
0.0764309391
0.0765687672
0.0767054556
0.0768409937
0.0769753707
0.0771085759
0.0772405983
0.0773714272
0.0775010516
0.0776294608
0.0777566438
0.0778825895
0.0780072871
0.0781307255
0.0782528937
0.0783737807
0.0784933753
0.0786116664
0.0787286429
0.0788442935
0.0789586073
0.0790715728
0.0791831788
0.0792934142
0.0794022675
0.0795097275
0.0796157829
0.0797204222
0.079823634
0.079925407
0.0800257298
0.0801245908
0.0802219785
0.0803178815
0.0804122883
0.0805051872
0.0805965668
0.0806864154
0.0807747213
0.0808614731
0.0809466589
0.0810302672
0.0811122863
0.0811927043
0.0812715097
0.0813486906
0.0814242352
0.0814981319
0.0815703686
0.0816409337
0.0817098153
0.0817770016
0.0818424805
0.0819062403
0.081968269
0.0820285548
0.0820870855
0.0821438494
0.0821988344
0.0822520285
0.0823034197
0.0823529959
0.0824007453
0.0824466556
0.0824907149
0.082532911
0.082573232
0.0826116655
0.0826481997
0.0826828223
0.0827155211
0.0827462841
0.0827750991
0.0828019539
0.0828268363
0.0828497341
0.0828706352
0.0828895273
0.0829063982
0.0829212357
0.0829340275
0.0829447614
0.0829534251
0.0829600064
0.0829644931
0.0829668727
0.0829671331
0.082965262
0.082961247
0.0829550759
0.0829467363
0.0829362161
0.0829235027
0.082908584
0.0828914476
0.0828720812
0.0828504725
0.082826609
0.0828004786
0.0827720688
0.0827413674
0.0827083619
0.0826730401
0.0826353896
0.082595398
0.0825530531
0.0825083425
0.0824612538
0.0824117748
0.082359893
0.0823055962
0.082248872
0.082189708
0.0821280921
0.0820640118
0.0819974548
0.0819284088
0.0818568615
0.0817828007
0.0817062139
0.0816270889
0.0815454134
0.0814611752
0.0813743619
0.0812849613
0.0811929611
0.081098349
0.081001113
0.0809012405
0.0807987196
0.0806935379
0.0805856832
0.0804751434
0.0803619062
0.0802459594
0.080127291
0.0800058887
0.0798817404
0.079754834
0.0796251573
0.0794926983
0.0793574448
0.0792193848
0.0790785062
0.078934797
0.078788245
0.0786388384
0.0784865651
0.0783314131
0.0781733705
0.0780124252
0.0778485654
0.0776817791
0.0775120544
0.0773393795
0.0771637425
0.0769851315
0.0768035348
0.0766189404
0.0764313367
0.0762407118
0.076047054
0.0758503516
0.075650593
0.0754477663
0.07524186
0.0750328624
0.074820762
0.0746055471
0.0743872062
0.0741657277
0.0739411002
0.0737133121
0.073482352
0.0732482084
0.07301087
0.0727703254
0.0725265632
0.0722795721
0.0720293409
0.0717758581
0.0715191127
0.0712590933
0.0709957889
0.0707291882
0.0704592802
0.0701860537
0.0699094978
0.0696296013
0.0693463533
0.0690597429
0.0687697591
0.0684763909
0.0681796277
0.0678794585
0.0675758725
0.067268859
0.0669584073
0.0666445067
0.0663271465
0.0660063161
0.065682005
0.0653542026
0.0650228985
0.0646880821
0.064349743
0.0640078709
0.0636624554
0.0633134862
0.062960953
0.0626048457
0.062245154
0.0618818678
0.0615149769
0.0611444714
0.0607703413
0.0603925764
0.060011167
0.0596261032
0.059237375
0.0588449727
0.0584488865
0.0580491068
0.0576456238
0.057238428
0.0568275098
0.0564128596
0.0559944681
0.0555723257
0.055146423
0.0547167508
0.0542832998
0.0538460607
0.0534050243
0.0529601815
0.0525115233
0.0520590405
0.0516027243
0.0511425656
0.0506785556
0.0502106855
0.0497389464
0.0492633297
0.0487838267
0.0483004288
0.0478131274
0.047321914
0.0468267802
0.0463277175
0.0458247176
0.0453177722
0.0448068731
0.0442920122
0.0437731813
0.0432503723
0.0427235772
0.0421927881
0.0416579972
0.0411191965
0.0405763783
0.040029535
0.0394786588
0.0389237422
0.0383647776
0.0378017576
0.0372346748
0.0366635218
0.0360882914
0.0355089762
0.0349255693
0.0343380634
0.0337464516
0.0331507269
0.0325508823
0.0319469111
0.0313388065
0.0307265617
0.0301101702
0.0294896253
0.0288649205
0.0282360494
0.0276030057
0.026965783
0.026324375
0.0256787756
0.0250289787
0.0243749783
0.0237167684
0.023054343
0.0223876964
0.0217168229
0.0210417166
0.020362372
0.0196787836
0.0189909459
0.0182988534
0.0176025009
0.016901883
0.0161969947
0.0154878307
0.0147743861
0.0140566558
0.0133346351
0.0126083189
0.0118777027
0.0111427818
0.0104035515
0.00966000732
0.00891214483
0.00815995966
0.00740344752
0.00664260419
0.00587742554
0.0051079075
0.00433404609
0.0035558374
0.00277327761
0.00198636297
0.00119508981
0.000399454532
0.000400546371
0.00120491633
0.00201365871
0.00282677676
0.0036442737
0.00446615262
0.00529241656
0.00612306847
0.00695811121
0.00779754758
0.00864138027
0.00948961191
0.010342245
0.0111992821
0.0120607255
0.0129265775
0.0137968403
0.014671516
0.0155506068
0.0164341144
0.0173220408
0.0182143879
0.0191111572
0.0200123503
0.020917969
0.0218280144
0.0227424881
0.0236613913
0.0245847251
0.0255124908
0.0264446891
0.0273813212
0.0283223878
0.0292678897
0.0302178276
0.0311722019
0.0321310132
0.0330942619
0.0340619483
0.0350340726
0.0360106348
0.0369916352
0.0379770736
0.0389669498
0.0399612636
0.0409600147
0.0419632028
0.0429708272
0.0439828874
0.0449993826
0.0460203122
0.0470456753
0.0480754708
0.0491096977
0.050148355
0.0511914412
0.0522389552
0.0532908954
0.0543472604
0.0554080486
0.0564732582
