# Pulseq sequence file
# Created by PyPulseq

[VERSION]
major 1
minor 4
revision 0

[DEFINITIONS]
AdcRasterTime 1e-07 
BlockDurationRaster 1e-05 
GradientRasterTime 1e-05 
Name se_proj_ 
RadiofrequencyRasterTime 1e-06 
TotalDuration 0.02228 

# Format of blocks:
# NUM DUR RF  GX  GY  GZ  ADC  EXT
[BLOCKS]
1  60   1   0   0   0  0  0
2 960   0   0   0   0  0  0
3  60   2   0   0   0  0  0
4 852   0   0   0   0  0  0
5 296   0   1   0   0  1  0

# Format of RF events:
# id amplitude mag_id phase_id time_shape_id delay freq phase
# ..        Hz   ....     ....          ....    us   Hz   rad
[RF]
1       2468.5 1 2 0 100 0 1.5708
2         4937 1 2 0 100 0 1.5708

# Format of trapezoid gradients:
# id amplitude rise flat fall delay
# ..      Hz/m   us   us   us    us
[TRAP]
 1       196078 200 2560 200   0

# Format of ADC events:
# id num dwell delay freq phase
# ..  ..    ns    us   Hz   rad
[ADC]
1 128 20000 200 0 0

# Sequence Shapes
[SHAPES]

shape_id 1
num_samples 400
3.8650164e-08
1.0484235e-06
4.87477809e-06
1.34295367e-05
2.86461767e-05
5.24734317e-05
8.68687588e-05
0.000133791688
0.000195197064
0.0002730282
0.00036920995
0.000485641726
0.000624190463
0.000786683554
0.000974901775
0.00119057221
0.00143536116
0.00171086718
0.00201861401
0.00236004374
0.0027365099
0.00314927079
0.00359948281
0.00408819399
0.00461633759
0.00518472597
0.00579404454
0.00644484594
0.00713754442
0.00787241045
0.00864956554
0.00946897733
0.010330455
0.0112336447
0.0121780259
0.0131629069
0.0141874221
0.0152505283
0.0163510024
0.0174874383
0.0186582453
0.0198616462
0.0210956758
0.02235818
0.0236468154
0.0249590485
0.0262921566
0.0276432278
0.0290091623
0.0303866736
0.0317722906
0.0331623594
0.0345530465
0.0359403411
0.0373200594
0.0386878477
0.0400391874
0.041369399
0.0426736479
0.0439469492
0.0451841741
0.0463800559
0.0475291969
0.048626075
0.0496650516
0.0506403788
0.0515462078
0.0523765974
0.0531255224
0.0537868826
0.0543545126
0.0548221909
0.0551836499
0.0554325861
0.0555626703
0.0555675582
0.0554409012
0.0551763572
0.054767602
0.0542083401
0.0534923162
0.052613327
0.0515652324
0.0503419671
0.0489375526
0.0473461085
0.0455618646
0.0435791722
0.0413925159
0.0389965255
0.036385987
0.0335558543
0.0305012605
0.027217529
0.0237001844
0.0199449635
0.0159478258
0.0117049639
0.00721281339
0.00246806318
0.00253233528
0.00779115864
0.0133109026
0.0190937735
0.0251416799
0.0314562248
0.0380386979
0.0448900692
0.0520109815
0.059401745
0.0670623308
0.0749923665
0.0831911305
0.0916575483
0.100390189
0.10938726
0.118646609
0.128165715
0.137941694
0.14797129
0.158250882
0.168776479
0.179543724
0.190547892
0.201783893
0.213246275
0.224929226
0.236826579
0.248931813
0.26123806
0.273738112
0.286424421
0.29928911
0.312323979
0.325520511
0.338869883
0.352362969
0.365990356
0.379742346
0.393608974
0.40758001
0.421644977
0.43579316
0.450013616
0.464295187
0.478626516
0.492996055
0.507392083
0.521802715
0.53621592
0.550619536
0.56500128
0.579348767
0.593649524
0.607891006
0.622060609
0.63614569
0.65013358
0.664011601
0.677767082
0.691387376
0.704859874
0.718172025
0.73131135
0.744265458
0.757022062
0.769568999
0.781894242
0.793985915
0.805832315
0.817421921
0.828743413
0.839785687
0.850537869
0.86098933
0.8711297
0.880948885
0.890437075
0.899584764
0.908382758
0.91682219
0.924894531
0.932591604
0.939905591
0.946829049
0.953354917
0.959476525
0.965187606
0.970482304
0.975355181
0.979801224
0.983815855
0.987394934
0.990534768
0.993232111
0.995484177
0.997288634
0.998643614
0.999547715
1
1
0.999547715
0.998643614
0.997288634
0.995484177
0.993232111
0.990534768
0.987394934
0.983815855
0.979801224
0.975355181
0.970482304
0.965187606
0.959476525
0.953354917
0.946829049
0.939905591
0.932591604
0.924894531
0.91682219
0.908382758
0.899584764
0.890437075
0.880948885
0.8711297
0.86098933
0.850537869
0.839785687
0.828743413
0.817421921
0.805832315
0.793985915
0.781894242
0.769568999
0.757022062
0.744265458
0.73131135
0.718172025
0.704859874
0.691387376
0.677767082
0.664011601
0.65013358
0.63614569
0.622060609
0.607891006
0.593649524
0.579348767
0.56500128
0.550619536
0.53621592
0.521802715
0.507392083
0.492996055
0.478626516
0.464295187
0.450013616
0.43579316
0.421644977
0.40758001
0.393608974
0.379742346
0.365990356
0.352362969
0.338869883
0.325520511
0.312323979
0.29928911
0.286424421
0.273738112
0.26123806
0.248931813
0.236826579
0.224929226
0.213246275
0.201783893
0.190547892
0.179543724
0.168776479
0.158250882
0.14797129
0.137941694
0.128165715
0.118646609
0.10938726
0.100390189
0.0916575483
0.0831911305
0.0749923665
0.0670623308
0.059401745
0.0520109815
0.0448900692
0.0380386979
0.0314562248
0.0251416799
0.0190937735
0.0133109026
0.00779115864
0.00253233528
0.00246806318
0.00721281339
0.0117049639
0.0159478258
0.0199449635
0.0237001844
0.027217529
0.0305012605
0.0335558543
0.036385987
0.0389965255
0.0413925159
0.0435791722
0.0455618646
0.0473461085
0.0489375526
0.0503419671
0.0515652324
0.052613327
0.0534923162
0.0542083401
0.054767602
0.0551763572
0.0554409012
0.0555675582
0.0555626703
0.0554325861
0.0551836499
0.0548221909
0.0543545126
0.0537868826
0.0531255224
0.0523765974
0.0515462078
0.0506403788
0.0496650516
0.048626075
0.0475291969
0.0463800559
0.0451841741
0.0439469492
0.0426736479
0.041369399
0.0400391874
0.0386878477
0.0373200594
0.0359403411
0.0345530465
0.0331623594
0.0317722906
0.0303866736
0.0290091623
0.0276432278
0.0262921566
0.0249590485
0.0236468154
0.02235818
0.0210956758
0.0198616462
0.0186582453
0.0174874383
0.0163510024
0.0152505283
0.0141874221
0.0131629069
0.0121780259
0.0112336447
0.010330455
0.00946897733
0.00864956554
0.00787241045
0.00713754442
0.00644484594
0.00579404454
0.00518472597
0.00461633759
0.00408819399
0.00359948281
0.00314927079
0.0027365099
0.00236004374
0.00201861401
0.00171086718
0.00143536116
0.00119057221
0.000974901775
0.000786683554
0.000624190463
0.000485641726
0.00036920995
0.0002730282
0.000195197064
0.000133791688
8.68687588e-05
5.24734317e-05
2.86461767e-05
1.34295367e-05
4.87477809e-06
1.0484235e-06
3.8650164e-08

shape_id 2
num_samples 400
0.5
0
0
97
-0.5
0
0
197
0.5
0
0
97


[SIGNATURE]
# This is the hash of the Pulseq file, calculated right before the [SIGNATURE] section was added
# It can be reproduced/verified with md5sum if the file trimmed to the position right above [SIGNATURE]
# The new line character preceding [SIGNATURE] BELONGS to the signature (and needs to be stripped away for recalculating/verification)
Type md5
Hash 23bb9c23efeb35151ea686f8c3a731b4
